theta,x,y,r
0.0,-4.800133794130044,-5.878468486460398e-16,4.800133794130044
0.0031415926535897933,-4.801187782248405,-0.015083425887731134,4.801211475257872
0.006283185307179587,-4.804348747114327,-0.030187010704620026,4.804443582717387
0.00942477796076938,-4.809613691292567,-0.0453308833191135,4.809827309628839
0.012566370614359173,-4.8169776224974035,-0.06053511251952656,4.817357980832283
0.015707963267948967,-4.826433558748263,-0.07581967707708133,4.82702905734402
0.01884955592153876,-4.837972535579654,-0.09120443593257802,4.8388321425894505
0.02199114857512855,-4.8515836152976775,-0.10670909854757891,4.852756990406353
0.025132741228718346,-4.867253898272896,-0.12235319546090496,4.868791514810652
0.02827433388230814,-4.884968536257341,-0.13815604909084023,4.886921801515202
0.031415926535897934,-4.904710747711091,-0.1541367448232522,4.907132121190278
0.034557519189487726,-4.926461835121734,-0.17031410242534087,4.929404944452824
0.03769911184307752,-4.950201204297826,-0.18670664782437807,4.953720958569776
0.04084070449666731,-4.975906385615329,-0.20333258529032114,4.980059085859148
0.0439822971502571,-5.003553057193876,-0.220209770060579,5.008396503770875
0.047123889803846894,-5.033115069977591,-0.23735568144475105,5.038708666627754
0.05026548245743669,-5.064564474693167,-0.25478739644639314,5.070969329005256
0.053407075111026485,-5.097871550655817,-0.2725215639383235,5.1051505707273055
0.05654866776461628,-5.13300483639174,-0.290574379427136,5.141222823453625
0.05969026041820607,-5.16993116204374,-0.3089615604418856,5.179154898832591
0.06283185307179587,-5.2086156835247515,-0.3276983225811023,5.218914018192145
0.06597344572538566,-5.2490219183820335,-0.3467993562513349,5.2604658437396346
0.06911503837897545,-5.291111783333079,-0.36627880412965697,5.303774511240161
0.07225663103256524,-5.334845633432365,-0.38615023938146564,5.348802664141456
0.07539822368615504,-5.3801823028262925,-0.4064266446640577,5.395511489111863
0.07853981633974483,-5.427079147052119,-0.4271203919452969,5.443860752956807
0.08168140899333462,-5.475492086834738,-0.44824322316574605,5.493808840877506
0.08482300164692441,-5.525375653333884,-0.4698062317714182,5.545312796034693
0.0879645943005142,-5.576683034792415,-0.4918198451432113,5.598328360378501
0.091106186954104,-5.62936612453517,-0.5142938079479432,5.652810016704764
0.09424777960769379,-5.68337557026616,-0.5372371664345756,5.708711031896505
0.09738937226128358,-5.738660824610655,-0.560658253698131,5.765983501308417
0.10053096491487339,-5.795170196847324,-0.5845646759323647,5.824578394250983
0.10367255756846318,-5.852850905774237,-0.6089632996911056,5.88444560052967
0.10681415022205297,-5.911649133651564,-0.63386024017671,5.945533977993916
0.10995574287564276,-5.971510081162316,-0.6592608505728438,6.007791401049241
0.11309733552923255,-6.032378023331804,-0.685169712437325,6.071164810085291
0.11623892818282235,-6.0941963663450585,-0.7115906271694097,6.135600261771351
0.11938052083641214,-6.156907705200927,-0.7385266085645216,6.2010429801703815
0.12252211349000193,-6.220453882140265,-0.765979876467859,6.267437408621454
0.12566370614359174,-6.284776045785281,-0.793951851537046,6.334727262340154
0.12880529879718153,-6.349814710925924,-0.8224431511223128,6.402855581685353
0.13194689145077132,-6.415509818888896,-0.8514535862714252,6.471764786040536
0.1350884841043611,-6.481800798424092,-0.8809821598649062,6.541396728257004
0.1382300767579509,-6.5486266270427205,-0.9110270658856896,6.611692749605748
0.1413716694115407,-6.615925892741148,-0.9415856898258748,6.682593735184538
0.1445132620651305,-6.683636856043776,-0.9726546102315773,6.754040169725931
0.14765485471872028,-6.751697512298396,-1.0042296013855916,6.825972193751994
0.15079644737231007,-6.820045654156769,-1.0363056371258024,6.898329660020703
0.15393804002589986,-6.8886189341735475,-1.068876895796039,6.971052190209228
0.15707963267948966,-6.957354927456039,-1.1019367663242803,7.044079231778561
0.16022122533307945,-7.026191194297815,-1.1354778554218716,7.11735011496425
0.16336281798666924,-7.095065342728928,-1.1694919958957066,7.190804109837598
0.16650441064025903,-7.163915090915662,-1.2039702560639318,7.264380483381622
0.16964600329384882,-7.232678329343262,-1.2389029502643105,7.338018556526363
0.17278759594743862,-7.301293182714907,-1.2742796504427119,7.411657761087702
0.1759291886010284,-7.369698071501121,-1.310089198808023,7.485237696554519
0.1790707812546182,-7.437831773073685,-1.3463197215380314,7.558698186668567
0.182212373908208,-7.505633482359208,-1.3829586435197188,7.631979335742303
0.18535396656179778,-7.573042871947561,-1.4199927041057039,7.7050215846595265
0.18849555921538758,-7.640000151591557,-1.4574079738674854,7.777765766504642
0.19163715186897737,-7.706446127034489,-1.495189872324521,7.8501531617661255
0.19477874452256716,-7.7723222581034355,-1.5333231866270363,7.922125553060755
0.19792033717615698,-7.837570716006705,-1.5717920911691061,7.993625279325245
0.20106192982974677,-7.902134439774943,-1.6105801681071685,8.064595289422611
0.20420352248333656,-7.965957191786481,-1.6496704287581225,8.134979195111304
0.20734511513692636,-8.028983612318306,-1.6890453358496518,8.204721323325455
0.21048670779051615,-8.091159273065596,-1.7286868265945665,8.273766767715717
0.21362830044410594,-8.152430729573418,-1.7685763365594964,8.342061439400405
0.21676989309769573,-8.21274557252607,-1.8086948242974143,8.409552116877974
0.21991148575128552,-8.272052477840246,-1.8490227967122796,8.476186495052163
0.22305307840487532,-8.330301255510154,-1.8895403351230557,8.541913233322555
0.2261946710584651,-8.387442897153608,-1.9302271219934628,8.606682002693702
0.2293362637120549,-8.443429622210136,-1.971062468292747,8.670443531857405
0.2324778563656447,-8.498214922743289,-2.01202534145203,8.733149652203487
0.23561944901923448,-8.55175360680103,-2.053094393879699,8.794753341715428
0.23876104167282428,-8.604001840290003,-2.0942479919987957,8.855208767708683
0.24190263432641407,-8.654917187320628,-2.1354642457682846,8.914471328370107
0.24504422698000386,-8.704458648982351,-2.1767210386496054,8.972497693058688
0.24818581963359365,-8.752586700509575,-2.2179960579791516,9.029245841328507
0.25132741228718347,-8.79926332680108,-2.259266825706661,9.084675100636515
0.25446900494077324,-8.844452056257277,-2.300510729459059,9.138746182698688
0.25761059759436306,-8.888117992901769,-2.341705053888622,9.191421218459727
0.2607521902479528,-8.930227846755526,-2.382827012264069,9.242663791642707
0.26389378290154264,-8.970749962433903,-2.4238537782625222,9.292438970846424
0.2670353755551324,-9.009654345938925,-2.464762517920231,9.340713340159875
0.2701769682087222,-9.046912689621019,-2.505530421699334,9.387455028264405
0.273318560862312,-9.08249839528673,-2.5461347366279337,9.432633735995978
0.2764601535159018,-9.116386595430756,-2.5865527984704753,9.476220762341125
0.27960174616949157,-9.14855417257298,-2.6267620638852036,9.51818902884204
0.2827433388230814,-9.178979776683141,-2.6667401425255846,9.558513102387602
0.28588493147667116,-9.207643840677955,-2.706464829042306,9.59716921636884
0.289026524130261,-9.234528593977783,-2.745914134942779,9.634135290178971
0.29216811678385074,-9.25961807411183,-2.785066320264859,9.669390947039638
0.29530970943744056,-9.282898136363396,-2.82389992502188,9.702917530136881
0.2984513020910303,-9.304356461448522,-2.8623938003761964,9.734698117051753
0.30159289474462014,-9.323982561223836,-2.900527139498608,9.764717532472416
0.3047344873982099,-9.341767782421446,-2.9382795080715556,9.79296235917613
0.3078760800517997,-9.357705308410969,-2.9756308743940623,9.819420947271281
0.3110176727053895,-9.371790158990908,-3.0125616390470915,9.844083421691272
0.3141592653589793,-9.38401918821391,-3.049052664078229,9.866941687933977
0.31730085801256913,-9.394391080252412,-3.085085301665311,9.887989436041961
0.3204424506661589,-9.40290634331351,-3.1206414222190313,9.907222142820594
0.3235840433197487,-9.409567301613988,-3.1557034418853176,9.92463707229287
0.3267256359733385,-9.414378085428451,-3.190254349408916,9.9402332743914
0.3298672286269283,-9.417344619225913,-3.2242777323202763,9.954011581889969
0.33300882128051806,-9.418474607911895,-3.2577578024087637,9.96597460557854
0.3361504139341079,-9.417777521195564,-3.290679420445877,9.976126727687578
0.33929200658769765,-9.415264576103148,-3.3230281201232312,9.984474093569101
0.34243359924128747,-9.410948717661155,-3.354790131170763,9.991024601643662
0.34557519189487723,-9.404844597774693,-3.38595240162184,9.995787891624179
0.34871678454846705,-9.396968552328328,-3.416502619192738,9.998775331029215
0.3518583772020568,-9.38733857653874,-3.446429231745171,10.0
0.35499996985564664,-9.375974298590343,-3.4757214668016307,9.999476674437135
0.3581415625092364,-9.362896951586931,-3.5043693500843527,9.99722180747464
0.3612831551628262,-9.348129343854177,-3.532363723050062,9.99325350931055
0.364424747816416,-9.331695827629593,-3.5596962593936934,9.987591525414974
0.3675663404700058,-9.313622266178335,-3.586359480495748,9.980257213138076
0.37070793312359557,-9.293935999374828,-3.6123467697890392,9.971273516742015
0.3738495257771854,-9.272665807791915,-3.637652386022046,9.96066494088247
0.37699111843077515,-9.249841875340742,-3.6622714753974424,9.948457522566848
0.38013271108436497,-9.225495750506182,-3.68620008256566,9.934678801617832
0.38327430373795474,-9.199660306224025,-3.709435160454932,9.919357789672334
0.38641589639154456,-9.172369698447643,-3.7319745789205054,9.902524937747412
0.3895574890451343,-9.143659323453175,-3.753817132197429,9.884212102406094
0.39269908169872414,-9.113565773933574,-3.7749625451425404,9.864452510557417
0.39584067435231396,-9.082126793933176,-3.7954114782530946,9.843280722926389
0.3989822670059037,-9.049381232675522,-3.815165531450727,9.820732596230775
0.40212385965949354,-9.015368997338484,-3.834227246621215,9.796845244103043
0.4052654523130833,-8.980131004831568,-3.8526001089019863,9.77165699679685
0.4084070449666731,-8.943709132631529,-3.8702885467108716,9.745207359718826
0.4115486376202629,-8.90614616873314,-3.8872979305113136,9.717536970827407
0.4146902302738527,-8.867485760773016,-3.903634570310696,9.688687556941701
0.4178318229274425,-8.82777236438508,-3.919305711890264,9.65870188900437
0.4209734155810323,-8.787051190847007,-3.934319531766491,9.627623736343518
0.42411500823462206,-8.745368154077775,-3.9486851308856674,9.595497819979705
0.4272566008882119,-8.70276981704682,-3.9624125270547994,9.562369765024878
0.43039819354180164,-8.659303337656116,-3.9755126461138004,9.528286052221201
0.43353978619539146,-8.615016414156619,-3.9879973118554375,9.493293968668313
0.4366813788489812,-8.569957230161306,-3.9998792347011367,9.457441557788629
0.43982297150257105,-8.52417439931691,-4.011171999142441,9.420777568580748
0.4429645641561608,-8.477716909697133,-4.0218900499593895,9.383351404211986
0.44610615680975063,-8.430634067979954,-4.032048677228872,9.345213070001526
0.4492477494633404,-8.382975443471942,-4.041664000137382,9.306413120846296
0.4523893421169302,-8.334790812042495,-4.050752949614342,9.26700260814236
0.45553093477052,-8.286130100030777,-4.059333249803672,9.227033026254848
0.4586725274241098,-8.237043328188188,-4.067423398392733,9.18655625859017
0.46181412007769956,-8.187580555718826,-4.075042645819453,9.145624523324376
0.4649557127312894,-8.137791824480383,-4.082210973379765,9.104290318842096
0.46809730538487915,-8.087727103407275,-4.0889490702591145,9.062606368940532
0.47123889803846897,-8.037436233217825,-4.095278309513122,9.020625567853452
0.4743804906920588,-7.986968871466393,-4.101220723023969,8.978400925150002
0.47752208334564855,-7.936374438001257,-4.106798975460462,8.935985510563615
0.48066367599923837,-7.885702060888126,-4.112036337271032,8.89343239880602
0.48380526865282814,-7.835000522858618,-4.116956656740347,8.850794614421547
0.48694686130641796,-7.78431820834243,-4.121584331141408,8.808125076736925
0.4900884539600077,-7.7337030511407985,-4.125944277016321,8.765476544961388
0.49323004661359754,-7.683202482798437,-4.130061899620108,8.722901563492146
0.4963716392671873,-7.632863381729734,-4.133963061563148,8.680452407479649
0.4995132319207771,-7.582732023154436,-4.1376740506889,8.638181028707146
0.5026548245743669,-7.532854029896639,-4.141221547224733,8.596139001838468
0.5057964172279567,-7.48327432410012,-4.14463259024469,8.5543774710878
0.5089380098815465,-7.434037079911561,-4.147934543483985,8.512947097364561
0.5120796025351363,-7.385185677182259,-4.151155060546099,8.471898005946215
0.5152211951887261,-7.336762656237506,-4.154322049544105,8.431279734731232
0.5183627878423158,-7.28880967376147,-4.157463637218839,8.391141183123764
0.5215043804959056,-7.241367459844153,-4.1606081325772335,8.351530561601123
0.5246459731494955,-7.194475776235362,-4.163783990094981,8.312495342014255
0.5277875658030853,-7.1481733758494235,-4.167019772528337,8.27408220867092
0.530929158456675,-7.102497963562531,-4.1703441133805175,8.236337010250214
0.5340707511102648,-7.057486158343311,-4.173785679068822,8.199304712596515
0.5372123437638546,-7.013173456755409,-4.177373130839023,8.163029352439843
0.5403539364174444,-6.969594197869247,-4.181135086474168,8.127553992088766
0.5434955290710342,-6.9267815296185935,-4.185100081845298,8.092920675141134
0.546637121724624,-6.884767376635499,-4.18929653235199,8.059170383256632
0.5497787143782138,-6.843582409595772,-4.193752694300865,8.026342994034358
0.5529203070318036,-6.8032560161050615,-4.198496626270626,7.994477240037371
0.5560618996853934,-6.763816273153956,-4.203556150512158,7.963610669005037
0.5592034923389831,-6.72528992116855,-4.208958814432511,7.933779605292828
0.562345084992573,-6.68770233968112,-4.214731852211687,7.905019112578039
0.5654866776461628,-6.651077524643531,-4.220902146600949,7.877362957868503
0.5686282702997526,-6.615438067404186,-4.227496190951636,7.850843576850263
0.5717698629533423,-6.5808051353672825,-4.234540051523051,7.825492040608644
0.5749114556069321,-6.5471984543511565,-4.242059330118074,7.801338023755923
0.578053048260522,-6.514636292660643,-4.25007912709474,7.778409773997355
0.5811946409141118,-6.483135446886163,-4.258624004801859,7.756734083165831
0.5843362335677015,-6.452711229440471,-4.267717951486341,7.736336259754091
0.5874778262212913,-6.4233774578417595,-4.277384345719445,7.71724010297175
0.5906194188748811,-6.395146445749979,-4.287645921388892,7.699467878353112
0.5937610115284709,-6.36802899576106,-4.298524733302932,7.68304029493993
0.5969026041820606,-6.342034393961793,-4.310042123452247,7.667976484061951
0.6000441968356505,-6.317170406246031,-4.322218687974592,7.654293979736305
0.6031857894892403,-6.293443276390868,-4.335074244866617,7.642008700705286
0.6063273821428301,-6.270857725889495,-4.348627802486441,7.631134934130442
0.6094689747964198,-6.249416955535284,-4.362897528889731,7.6216853209591395
0.6126105674500096,-6.2291226487498115,-4.377900722041283,7.613670842978271
0.6157521601035995,-6.209974976645429,-4.393653780943004,7.60710081156791
0.6188937527571893,-6.19197260481106,-4.410172177718427,7.601982858166173
0.622035345410779,-6.175112701807963,-4.427470430692657,7.598322926454749
0.6251769380643688,-6.15939094936025,-4.4455620785057866,7.5961252662729075
0.6283185307179586,-6.144801554223019,-4.464459655296464,7.5953924292660115
0.6314601233715484,-6.131337261709113,-4.484174666991357,7.5961252662729075
0.6346017160251383,-6.118989370853618,-4.504717568734837,7.598322926454749
0.637743308678728,-6.107747751193424,-4.52609774349207,7.601982858166173
0.6408849013323178,-6.097600861137287,-4.54832348185735,7.60710081156791
0.6440264939859076,-6.088535767900197,-4.571401963098126,7.613670842978271
0.6471680866394974,-6.080538168973948,-4.595339237463862,7.621685320959139
0.6503096792930871,-6.073592415104294,-4.620140209787321,7.631134934130443
0.653451271946677,-6.067681534743216,-4.645808624404531,7.642008700705287
0.6565928646002668,-6.0627872599434385,-4.672347051418054,7.654293979736305
0.6597344572538566,-6.058890053660476,-4.699756874326721,7.6679764840619535
0.6628760499074463,-6.055969138426238,-4.728038279043396,7.683040294939931
0.6660176425610361,-6.054002526356529,-4.757190244320712,7.699467878353113
0.669159235214626,-6.052967050453412,-4.787210533603132,7.717240102971752
0.6723008278682158,-6.052838397162055,-4.818095688321958,7.7363362597540934
0.6754424205218055,-6.053591140140216,-4.849841022648308,7.756734083165833
0.6785840131753953,-6.055198775197412,-4.882440619717291,7.778409773997356
0.6817256058289851,-6.057633756359343,-4.915887329334937,7.801338023755924
0.6848671984825749,-6.060867533012229,-4.950172767177678,7.825492040608645
0.6880087911361646,-6.064870588080346,-4.985287315492356,7.850843576850263
0.6911503837897545,-6.0696124771891435,-5.021220125303083,7.877362957868504
0.6942919764433443,-6.075061868765231,-5.057959120129266,7.905019112578041
0.6974335690969341,-6.081186585023597,-5.095491001217596,7.93377960529283
0.7005751617505238,-6.087953643791553,-5.133801254288683,7.96361066900504
0.7037167544041136,-6.095329301117962,-5.1728741577974215,7.994477240037373
0.7068583470577035,-6.1032790946157425,-5.21269279270426,8.026342994034362
0.7099999397112933,-6.111767887484642,-5.25323905375268,8.059170383256632
0.7131415323648831,-6.120759913160992,-5.294493662246498,8.092920675141137
0.7162831250184728,-6.130218820540186,-5.336436180318561,8.127553992088767
0.7194247176720626,-6.140107719717456,-5.379045026680901,8.163029352439843
0.7225663103256524,-6.150389228191847,-5.422297493844217,8.199304712596525
0.7257079029792423,-6.161025517477953,-5.4661697667931035,8.236337010250216
0.728849495632832,-6.171978360069835,-5.510636943101439,8.274082208670922
0.7319910882864218,-6.1832091767008865,-5.555673054470602,8.312495342014259
0.7351326809400116,-6.194679083843777,-5.601251089671488,8.351530561601125
0.7382742735936014,-6.206348941393939,-5.6473430188695,8.391141183123768
0.7414158662471911,-6.21817940048043,-5.693919819309933,8.431279734731236
0.744557458900781,-6.230130951347744,-5.7409515023395175,8.471898005946217
0.7476990515543708,-6.24216397125239,-5.788407141738248,8.512947097364565
0.7508406442079606,-6.254238772318113,-5.836254903333769,8.554377471087808
0.7539822368615503,-6.266315649293851,-5.884462075869254,8.596139001838472
0.7571238295151401,-6.278354927158889,-5.932995103093864,8.638181028707148
0.7602654221687299,-6.290317008519813,-5.981819617043428,8.680452407479649
0.7634070148223198,-6.302162420744552,-6.0309004724774695,8.72290156349215
0.7665486074759095,-6.313851862778956,-6.08020178243707,8.765476544961388
0.7696902001294993,-6.325346251592191,-6.129686954886888,8.808125076736927
0.7728317927830891,-6.336606768197529,-6.179318730402794,8.85079461442155
0.7759733854366789,-6.3475949031960495,-6.229059220865716,8.893432398806024
0.7791149780902686,-6.358272501791245,-6.27886994912048,8.935985510563619
0.7822565707438585,-6.368601808223477,-6.328711889557549,8.978400925150003
0.7853981633974483,-6.378545509573928,-6.378545509573929,9.020625567853454
0.7885397560510381,-6.388066778888658,-6.428330811868712,9.062606368940536
0.7916813487046279,-6.397129317574355,-6.478027377527254,9.104290318842098
0.7948229413582176,-6.405697397018228,-6.527594409847026,9.145624523324377
0.7979645340118074,-6.413735899385714,-6.57699077885724,9.186556258590171
0.8011061266653973,-6.421210357550657,-6.626175066483067,9.22703302625485
0.8042477193189871,-6.428086994113834,-6.6751056123047166,9.267002608142363
0.8073893119725768,-6.434332759466884,-6.723740559860366,9.306413120846297
0.8105309046261666,-6.439915368859976,-6.772037903441509,9.34521307000153
0.8136724972797564,-6.444803338432793,-6.819955535328115,9.383351404211988
0.8168140899333463,-6.448966020169861,-6.867451293410731,9.42077756858075
0.819955682586936,-6.452373635742485,-6.914483009145569,9.457441557788632
0.8230972752405258,-6.454997309201186,-6.9610085557884265,9.493293968668317
0.8262388678941156,-6.456809098483761,-7.006985896852543,9.528286052221203
