theta,x,y,r
0.0,-7.89933683647757,-9.673897572179035e-16,7.89933683647757
0.0031415926535897933,-7.899735490641751,-0.024817832630152546,7.899774474434148
0.006283185307179587,-7.900931046119327,-0.04964366714821113,7.9010870068124275
0.00942477796076938,-7.902922282286538,-0.07448549319188165,7.903273289502085
0.012566370614359173,-7.905707166173815,-0.09935127591534028,7.9063314168657275
0.015707963267948967,-7.909282854569209,-0.12424894378951326,7.910258723557357
0.01884955592153876,-7.913645696959984,-0.1491863764528444,7.91505178706573
0.02199114857512855,-7.918791239309167,-0.17417139262914663,7.92070643098013
0.025132741228718346,-7.924714228662918,-0.19921173812926998,7.927217728975343
0.02827433388230814,-7.931408618583729,-0.2243150739529843,7.934580009511959
0.031415926535897934,-7.9388675754034805,-0.24948896450756342,7.942786861247367
0.034557519189487726,-7.947083485289577,-0.27474086595921,7.951831139152185
0.03769911184307752,-7.956047962116444,-0.3000781147334077,7.961704971326128
0.04084070449666731,-7.965751856133787,-0.3255079161800916,7.972399766506618
0.0439822971502571,-7.976185263422203,-0.3510373334191916,7.983906222262858
0.047123889803846894,-7.987337536125782,-0.3766732763820587,7.996214333867263
0.05026548245743669,-7.999197293450605,-0.4024224910638126,8.009313403835655
0.053407075111026485,-8.011752433417106,-0.4282915490015863,8.023192052126827
0.05654866776461628,-8.024990145353522,-0.45428683699315714,8.037838226991534
0.05969026041820607,-8.038896923116821,-0.480414547070256,8.053239216460282
0.06283185307179587,-8.053458579026685,-0.5066806667405166,8.069381660458696
0.06597344572538566,-8.0686602584974,-0.533090969511545,8.086251563538578
0.06911503837897545,-8.084486455351716,-0.5596510057104245,8.103834308212257
0.07225663103256524,-8.100921027799998,-0.5863660936113526,8.12211466887714
0.07539822368615504,-8.11794721506731,-0.6132413108839341,8.141076826316882
0.07853981633974483,-8.135547654650297,-0.640281486374001,8.160704382764962
0.08168140899333462,-8.153704400185152,-0.6674911922286245,8.18098037751598
0.08482300164692441,-8.172398939907174,-0.6948747363763205,8.201887303069334
0.0879645943005142,-8.191612215681932,-0.7224361553731183,8.22340712178959
0.091106186954104,-8.211324642587288,-0.7501792076246783,8.245521283067168
0.09424777960769379,-8.231516129025021,-0.7781073669940147,8.268210740962607
0.09738937226128358,-8.252166097340258,-0.8062238168040903,8.291455972317172
0.10053096491487339,-8.273253504926279,-0.8345314442437841,8.315236995312075
0.10367255756846318,-8.29475686579179,-0.8630328351854418,8.339533388458149
0.10681415022205297,-8.316654272567343,-0.8917302694214512,8.364324309997496
0.10995574287564276,-8.338923418926946,-0.9206257163269373,8.389588517698037
0.11309733552923255,-8.361541622400647,-0.9497208309549361,8.415304389021717
0.11623892818282235,-8.384485847553316,-0.9790169505699327,8.441449941646583
0.11938052083641214,-8.407732729504604,-1.0085150916250945,8.468002854322766
0.12252211349000193,-8.431258597764518,-1.0382159471877932,8.494940488041877
0.12566370614359174,-8.455039500358959,-1.0681198848176428,8.522239907499268
0.12880529879718153,-8.479051228219019,-1.0982269449004272,8.549877902828074
0.13194689145077132,-8.503269339807801,-1.1285368394409423,8.577831011583916
0.1350884841043611,-8.527669185958072,-1.15904895131694,8.606075540958706
0.1382300767579509,-8.552225934893999,-1.1897623339958898,8.634587590201914
0.1413716694115407,-8.576914597410006,-1.2206757117156677,8.663343073227413
0.1445132620651305,-8.601710052179518,-1.2517874801295028,8.692317741383777
0.14765485471872028,-8.626587071166496,-1.2830957074151512,8.721487206365904
0.15079644737231007,-8.651520345112221,-1.3145981358473577,8.750826963245476
0.15393804002589986,-8.67648450907012,-1.3462921838323367,8.780312413597924
0.15707963267948966,-8.70145416796103,-1.3781749484021124,8.809918888703207
0.16022122533307945,-8.726403922121587,-1.4102432081661962,8.839621672797875
0.16336281798666924,-8.751308392818272,-1.4424934267172553,8.869396026355686
0.16650441064025903,-8.776142247699774,-1.4749217564869346,8.899217209374054
0.16964600329384882,-8.800880226160462,-1.5075240430474222,8.929060504643715
0.17278759594743862,-8.8254971645878,-1.5402958298535723,8.958901240978808
0.1759291886010284,-8.849968021466774,-1.5732323634200682,8.988714816384865
0.1790707812546182,-8.874267902314458,-1.6063285989272302,9.018476721142001
0.182212373908208,-8.89837208441828,-1.6395792062487882,9.048162560780943
0.18535396656179778,-8.922256041351492,-1.672978576394079,9.07774807892942
0.18849555921538758,-8.945895467239907,-1.7065208283568438,9.107209180006752
0.19163715186897737,-8.969266300754072,-1.7401998163620058,9.136521951744493
0.19477874452256716,-8.99234474880146,-1.7740091375014182,9.165662687511237
0.19792033717615698,-9.015107309893585,-1.807942139749034,9.194607908419862
0.20106192982974677,-9.037530797163386,-1.8419919303452996,9.223334385195729
0.20420352248333656,-9.059592361008528,-1.8761513845402729,9.251819159784548
0.20734511513692636,-9.081269511336815,-1.9104131546842416,9.280039566678916
0.21048670779051615,-9.102540139390365,-1.9447696796543859,9.307973253942869
0.21362830044410594,-9.123382539125538,-1.9792131946053122,9.335598203913904
0.21676989309769573,-9.143775428126396,-2.013735741031029,9.362892753562535
0.21991148575128552,-9.163697968029691,-2.048329177125431,9.38983561448947
0.22305307840487532,-9.18312978444026,-2.082985188427873,9.416405892541151
0.2261946710584651,-9.202050986315982,-2.117695298740167,9.442583107024536
0.2293362637120549,-9.220442184802366,-2.1524508813007563,9.468347209502587
0.2324778563656447,-9.238284511497197,-2.1872431702016675,9.493678602152215
0.23561944901923448,-9.255559636126506,-2.2220632720332634,9.518558155666929
0.23876104167282428,-9.27224978361373,-2.256902177741726,9.542967226686898
0.24190263432641407,-9.28833775052458,-2.2917507746836696,9.566887674739533
0.24504422698000386,-9.303806920870977,-2.3265998588621386,9.590301878674312
0.24818581963359365,-9.318641281257964,-2.3614401473279463,9.613192752575873
0.25132741228718347,-9.332825435358403,-2.396262290729969,9.635543761140168
0.25446900494077324,-9.346344617700955,-2.4310568859979496,9.657338934498762
0.25761059759436306,-9.359184706757608,-2.4658144891409313,9.67856288247707
0.2607521902479528,-9.371332237317853,-2.5005256281445205,9.699200808272833
0.26389378290154264,-9.382774412137389,-2.535180815949723,9.719238521541676
0.2670353755551324,-9.393499112850032,-2.569770563496227,9.738662450877229
0.2701769682087222,-9.4034949101324,-2.6042853928126664,9.757459655673877
0.273318560862312,-9.412751073111703,-2.6387158501364056,9.775617837360798
0.2764601535159018,-9.421257578007863,-2.673052519045346,9.79312534999656
0.27960174616949157,-9.429005116002099,-2.707286033584039,9.809971210214277
0.2827433388230814,-9.435985100324812,-2.7414070913665682,9.826145106507779
0.28588493147667116,-9.442189672556701,-2.7754064666384397,9.841637407850124
0.289026524130261,-9.447611708137723,-2.8092750232799464,9.856439171636252
0.29216811678385074,-9.452244821079534,-2.843003727733297,9.870542150942383
0.29530970943744056,-9.456083367877849,-2.8765836618360114,9.883938801095338
0.2984513020910303,-9.459122450622075,-2.9100060355431303,9.89662228554571
0.30159289474462014,-9.461357919300507,-2.9432621995207953,9.908586481039483
0.3047344873982099,-9.462786373300183,-2.9763436575940694,9.91982598208336
0.3078760800517997,-9.463405162101484,-3.009242079031777,9.930336104699807
0.3110176727053895,-9.463212385168362,-3.0419493106515674,9.94011288946848
0.3141592653589793,-9.462206891036061,-3.074457388728351,9.949153103851437
0.31730085801256913,-9.460388275599007,-3.1067585506897113,9.957454243800209
0.3204424506661589,-9.45775687960246,-3.138845246581904,9.965014534643563
0.3235840433197487,-9.454313785342425,-3.1707101502904824,9.971832931255463
0.3267256359733385,-9.450060812579093,-3.2023461704998173,9.977909117503419
0.3298672286269283,-9.445000513670092,-3.233746461375993,9.983243504978232
0.33300882128051806,-9.439136167930526,-3.2649044329580557,9.987837231006688
0.3361504139341079,-9.43247177522779,-3.2958137612427185,9.99169215594965
0.33929200658769765,-9.425012048819779,-3.3264683979482124,9.994810859788501
0.34243359924128747,-9.416762407446218,-3.356862579943118,9.997196638003809
0.34557519189487723,-9.407728966683296,-3.386990838326637,9.998853496750542
0.34871678454846705,-9.397918529572964,-3.4168480071469913,9.999786147335113
0.3518583772020568,-9.38733857653874,-3.446429231745171,10.0
0.35499996985564664,-9.375997254600785,-3.475729976711721,9.99950115702248
0.3581415625092364,-9.363903365903779,-3.5047460334446074,9.998296405134719
0.3612831551628262,-9.351066355571774,-3.533473527296859,9.996393207273016
0.364424747816416,-9.337496298905021,-3.5619089243029727,9.993799693664775
0.3675663404700058,-9.323203887934415,-3.5900490374738347,9.990524652262373
0.37070793312359557,-9.30820041734988,-3.617891032650175,9.986577518533716
0.3738495257771854,-9.292497769819771,-3.6454324339053104,9.981968364619988
0.37699111843077515,-9.276108400718883,-3.6726711284884437,9.97670788787163
0.38013271108436497,-9.259045322283376,-3.699605371300235,9.970807398774244
0.38327430373795474,-9.241322087211543,-3.7262337888931714,9.964278808276747
0.38641589639154456,-9.222952771729828,-3.7525553829895717,9.957134614534592
0.3895574890451343,-9.203951958144165,-3.7785695335109644,9.949387889081573
0.39269908169872414,-9.184334716897196,-3.8042760011128802,9.941052262444178
0.39584067435231396,-9.164116588152453,-3.829674929220033,9.932141909213108
0.3989822670059037,-9.143313562927005,-3.8547668455571897,9.922671532586971
0.40212385965949354,-9.121942063794735,-3.8795526631719035,9.91265634840389
0.4052654523130833,-9.100018925182507,-3.9040336809458194,9.902112068677024
0.4084070449666731,-9.077561373282299,-3.928211583591861,9.89105488465068
0.4115486376202629,-9.054587005602377,-3.9520884411354205,9.879501449394073
0.4146902302738527,-9.031113770181259,-3.975666707878116,9.867468859950254
0.4178318229274425,-9.00715994448832,-3.9989492208435875,9.854974639058204
0.4209734155810323,-8.982744114035295,-4.021939197705179,9.84203671646642
0.42411500823462206,-8.95788515072321,-4.044640234196328,9.828673409856851
0.4272566008882119,-8.932602190949478,-4.06705630100488,9.814903405398287
0.43039819354180164,-8.906914613500156,-4.089191740153345,9.80074573794877
0.43353978619539146,-8.880842017252496,-4.111051260867847,9.786219770926897
0.4366813788489812,-8.85440419871311,-4.132639934938918,9.771345175872169
0.43982297150257105,-8.827621129417235,-4.153963191578308,9.756141911714952
0.4429645641561608,-8.800512933214614,-4.1750268117762905,9.740630203776785
0.44610615680975063,-8.7730998634676,-4.195836922164872,9.724830522522087
0.4492477494633404,-8.745402280187205,-4.216399988392773,9.708763562082565
0.4523893421169302,-8.717440627132719,-4.236722808018774,9.692450218575825
0.45553093477052,-8.689235408900567,-4.256812502930706,9.675911568239894
0.4586725274241098,-8.660807168028064,-4.276676511297821,9.65916884540553
0.46181412007769956,-8.632176462137517,-4.296322579065112,9.642243420328366
0.4649557127312894,-8.603363841146237,-4.315758750998572,9.62515677690308
0.46809730538487915,-8.57438982456764,-4.334993361291154,9.607930490281841
0.47123889803846897,-8.545274878928716,-4.3540350237396055,9.590586204419484
0.4743804906920588,-8.516039395328656,-4.372892621503108,9.573145609567733
0.47752208334564855,-8.486703667163571,-4.391575296455081,9.555630419741135
0.48066367599923837,-8.457287868041641,-4.41009243814012,9.538062350177052
0.48380526865282814,-8.427812029912987,-4.428453672348625,9.520463094812357
0.48694686130641796,-8.398296021438211,-4.446668849322081,9.502854303799266
0.4900884539600077,-8.368759526619135,-4.464748031602617,9.485257561082776
0.49323004661359754,-8.339222023715074,-4.482701481540801,9.467694362062108
0.4963716392671873,-8.309702764467408,-4.500539648476284,9.45018609135843
0.4995132319207771,-8.280220753655044,-4.518273155606197,9.432754000711101
0.5026548245743669,-8.250794729002651,-4.535912786556793,9.415419187024407
0.5057964172279567,-8.221443141463446,-4.553469471674175,9.398202570586838
0.5089380098815465,-8.19218413589746,-4.570954274050355,9.381124873484481
0.5120796025351363,-8.163035532165969,-4.588378375301357,9.36420659823016
0.5152211951887261,-8.134014806662254,-4.605753061114335,9.347468006629647
0.5183627878423158,-8.105139074298053,-4.623089706581144,9.33092909890594
0.5215043804959056,-8.076425070964907,-4.640399761336022,9.314609593102542
0.5246459731494955,-8.047889136488566,-4.6576947345154505,9.298528904786156
0.5277875658030853,-8.019547198094445,-4.6749861795584575,9.282706127069146
0.530929158456675,-7.991414754401163,-4.692285678865959,9.267160010971601
0.5340707511102648,-7.963506859958718,-4.709604828337967,9.25190894614262
0.5372123437638546,-7.935838110347223,-4.726955221807655,9.236970941960035
0.5403539364174444,-7.9084226278512535,-4.744348435391568,9.22236360902736
0.5434955290710342,-7.881274047724439,-4.761796011775321,9.208104141086487
0.546637121724624,-7.854405505057965,-4.779309444454419,9.194209297364079
0.5497787143782138,-7.827829622266142,-4.796900161949799,9.180695385369308
0.5529203070318036,-7.801558497201255,-4.814579512017967,9.167578244160028
0.5560618996853934,-7.775603691909373,-4.832358745875521,9.154873228094111
0.5592034923389831,-7.74997622203785,-4.850249002457996,9.142595191082062
0.562345084992573,-7.724686546904596,-4.868261292733059,9.130758471356682
0.5654866776461628,-7.699744560238384,-4.886406484087859,9.119376876774885
0.5686282702997526,-7.675159581598612,-4.904695284810634,9.108463670666346
0.5717698629533423,-7.650940348482271,-4.923138228686317,9.098031558243061
0.5749114556069321,-7.627095009124879,-4.941745659726089,9.088092673583345
0.578053048260522,-7.603631116001552,-4.960527717050508,9.07865856720327
0.5811946409141118,-7.580555620033337,-4.979494319945906,9.069740194227867
0.5843362335677015,-7.557874865503297,-4.9986551531134795,9.061347903173921
0.5874778262212913,-7.535594585685904,-5.018019652130358,9.05349142535548
0.5906194188748811,-7.513719899192516,-5.037596989141858,9.04617986492269
0.5937610115284709,-7.492255307034856,-5.05739605880367,9.039421689543799
0.5969026041820606,-7.47120469040763,-5.077425464492819,9.033224721739689
0.6000441968356505,-7.450571309190525,-5.097693504805609,9.027596130879488
0.6031857894892403,-7.430357801169055,-5.118208160360827,9.022542425845279
0.6063273821428301,-7.41056618197292,-5.138977080925902,9.018069448373216
0.6094689747964198,-7.391197845729595,-5.160007572883523,9.014182367077622
0.6126105674500096,-7.372253566430232,-5.181306587055875,9.010885672164079
0.6157521601035995,-7.353733500004017,-5.202880706903156,9.008183170836748
0.6188937527571893,-7.335637187096314,-5.2247361371128,9.006077983404468
0.622035345410779,-7.317963556545282,-5.246878692595285,9.004572540089578
0.6251769380643688,-7.300710929550612,-5.269313787902029,9.003668578542538
0.6283185307179586,-7.283877024527531,-5.2920464270803995,9.003367142064931
0.6314601233715484,-7.267458962638181,-5.315081193980405,9.003668578542538
0.6346017160251383,-7.251453273991964,-5.3384222430271,9.004572540089578
0.637743308678728,-7.235855904505493,-5.36207329047223,9.006077983404468
0.6408849013323178,-7.220662223412183,-5.386037606138174,9.008183170836748
0.6440264939859076,-7.205867031410748,-5.410318005666536,9.010885672164079
0.6471680866394974,-7.191464569441159,-5.4349168432834,9.014182367077622
0.6503096792930871,-7.177448528075927,-5.45983600509238,9.018069448373216
0.653451271946677,-7.163812057513899,-5.4850769029063295,9.022542425845279
0.6565928646002668,-7.150547778163126,-5.510640468627641,9.027596130879488
0.6597344572538566,-7.137647791798618,-5.536527149186702,9.03322472173969
0.6628760499074463,-7.125103693280318,-5.5627369020472335,9.039421689543799
0.6660176425610361,-7.1129065828159135,-5.589269191286706,9.04617986492269
0.669159235214626,-7.101047078752503,-5.6161229842593166,9.053491425355482
0.6723008278682158,-7.089515330880711,-5.643296748848299,9.061347903173921
0.6754424205218055,-7.078301034234075,-5.670788451313748,9.069740194227867
0.6785840131753953,-7.067393443366232,-5.698595554741302,9.07865856720327
0.6817256058289851,-7.056781387087721,-5.726715018096463,9.088092673583345
0.6848671984825749,-7.046453283643904,-5.75514329588853,9.098031558243061
0.6880087911361646,-7.0363971563149486,-5.783876338447387,9.108463670666346
0.6911503837897545,-7.026600649418365,-5.812909592815793,9.119376876774885
0.6942919764433443,-7.017051044694292,-5.84223800425886,9.130758471356682
0.6974335690969341,-7.007735278053191,-5.871856018391937,9.142595191082062
0.7005751617505238,-6.998639956665368,-5.901757583927122,9.154873228094113
0.7037167544041136,-6.9897513763712915,-5.9319361560380885,9.16757824416003
0.7068583470577035,-6.9810555393914955,-5.96238470034202,9.180695385369306
0.7099999397112933,-6.972538172314397,-5.993095697496802,9.194209297364079
0.7131415323648831,-6.964184744340274,-6.024061148410789,9.208104141086487
0.7162831250184728,-6.9559804857592855,-6.055272580061793,9.222363609027362
0.7194247176720626,-6.947910406641235,-6.086721051921183,9.236970941960037
0.7225663103256524,-6.93995931571466,-6.11839716297816,9.251908946142622
0.7257079029792423,-6.93211183941255,-6.150291059358691,9.267160010971597
0.728849495632832,-6.924352441062032,-6.1823924425326915,9.282706127069146
0.7319910882864218,-6.916665440195032,-6.214690578102446,9.298528904786156
0.7351326809400116,-6.909035031957148,-6.247174305164445,9.314609593102546
0.7382742735936014,-6.901445306591572,-6.279832046236171,9.33092909890594
0.7414158662471911,-6.893880268975226,-6.312651817738636,9.347468006629647
0.744557458900781,-6.886323858183951,-6.345621241024693,9.36420659823016
0.7476990515543708,-6.87875996706393,-6.3787275539427,9.38112487348448
0.7508406442079606,-6.871172461786335,-6.411957622924079,9.39820257058684
0.7539822368615503,-6.863545201362403,-6.445297955583007,9.415419187024408
0.7571238295151401,-6.8558620570962825,-6.4787347138155615,9.432754000711101
0.7602654221687299,-6.84810693195298,-6.5122537273851595,9.450186091358432
0.7634070148223198,-6.840263779819115,-6.545840507980419,9.467694362062108
0.7665486074759095,-6.832316624634181,-6.579480263730972,9.485257561082777
0.7696902001294993,-6.824249579370351,-6.613157914166258,9.502854303799266
0.7728317927830891,-6.816046864839096,-6.646858105601562,9.520463094812355
0.7759733854366789,-6.807692828303077,-6.680565226935209,9.538062350177054
0.7791149780902686,-6.799171961872157,-6.714263425840074,9.555630419741137
0.7822565707438585,-6.790468920662633,-6.747936625332285,9.573145609567735
0.7853981633974483,-6.78156854069917,-6.781568540699171,9.590586204419486
0.7885397560510381,-6.772455856539207,-6.815142696768371,9.607930490281841
0.7916813487046279,-6.763116118600136,-6.848642445499276,9.62515677690308
0.7948229413582176,-6.7535348101697785,-6.88205098387761,9.642243420328368
0.7979645340118074,-6.743697664081249,-6.91535137209368,9.659168845405532
0.8011061266653973,-6.73359067903375,-6.948526551984125,9.675911568239894
0.8042477193189871,-6.7232001355411635,-6.981559365716934,9.692450218575825
0.8073893119725768,-6.7125126114910145,-7.014432574698836,9.708763562082561
0.8105309046261666,-6.701514997296721,-7.047128878684164,9.724830522522087
0.8136724972797564,-6.690194510626651,-7.079630935063606,9.740630203776785
0.8168140899333463,-6.678538710694056,-7.111921378311354,9.756141911714954
0.819955682586936,-6.6665355120924765,-7.143982839568571,9.77134517587217
0.8230972752405258,-6.654173198161883,-7.1757979663410625,9.786219770926897
0.8262388678941156,-6.641440433871273,-7.207349442288809,9.800745737948773
0.8293804605477054,-6.62832627820423,-7.238620007084648,9.814903405398287
